Time,X_pos,Y_pos,X_vel,Y_vel,X_acl,Y_acl,Angle,Ang_vel,Ang_acl
0.0,0,0.5,0,0,0.0,-9.81,0,0,4.0
0.01,0.0,0.499019,0.0,-0.0981,-1.276184749047887e-06,-9.627200000004455,0.0004,0.04,4.0
0.02,-1.276184749047887e-10,0.498038,-1.276184749047887e-08,-0.0981,-7.657108493789725e-06,-9.444400000080186,0.0012000000000000001,0.08,4.0
0.03,-1.02094779918855e-09,0.49705699999999997,-8.933293242837613e-08,-0.0981,-2.2971325476331004e-05,-9.26160000048111,0.0024000000000000002,0.12,4.0
0.04,-4.211409671105412e-09,0.49607599999999996,-3.190461871916862e-07,-0.0981,-5.1047389920863685e-05,-9.078800001781891,0.004,0.16,4.0
0.05,-1.2506610535108643e-08,0.49509499999999995,-8.29520086400323e-07,-0.0981,-9.57138560044324e-05,-8.896000005011565,0.006,0.2,4.0
0.06,-3.037319699955511e-08,0.49411399999999994,-1.7866586464446469e-06,-0.0981,-0.0001607992778053086,-8.713200011787203,0.008400000000000001,0.24000000000000002,4.0
0.07,-6.431971124453245e-08,0.49313299999999993,-3.3946514244977333e-06,-0.0981,-0.0002501322092224421,-8.530400024447532,0.011200000000000002,0.28,4.0
0.08,-1.23279446411754e-07,0.4921519999999999,-5.895973516722154e-06,-0.0981,-0.0003675412038594584,-8.34760004618659,0.014400000000000001,0.32,4.0
0.09,-2.189933019649214e-07,0.4911709999999999,-9.571385555316738e-06,-0.0981,-0.0005168548148666718,-8.164800081187366,0.018000000000000002,0.36,4.0
0.1,-3.6639263900475596e-07,0.4901899999999999,-1.4739933703983456e-05,-0.0981,-0.0007019015947345821,-7.982000134755435,0.022000000000000002,0.39999999999999997,4.0
0.11,-5.839821355180488e-07,0.4892089999999999,-2.1758949651329278e-05,-0.0981,-0.000926510095032325,-7.7992002134526075,0.0264,0.43999999999999995,4.0
0.12,-8.942226415345741e-07,0.4882279999999999,-3.102405060165253e-05,-0.0981,-0.0011945088660845452,-7.6164003252305665,0.0312,0.4799999999999999,4.0
0.13,-1.323914034159554e-06,0.4872469999999999,-4.296913926249798e-05,-0.0981,-0.0015097264565801592,-7.433600479564511,0.036399999999999995,0.5199999999999999,4.0
0.14,-1.9045780724425497e-06,0.48626599999999987,-5.806640382829957e-05,-0.0981,-0.001875991413106481,-7.250800687586796,0.041999999999999996,0.5599999999999999,4.0
0.15,-2.6728412520361935e-06,0.48528499999999986,-7.682631795936438e-05,-0.0981,-0.0022971322796021755,-7.068000962220577,0.047999999999999994,0.6,4.0
0.16,-3.670817659590055e-06,0.48430399999999985,-9.979764075538613e-05,-0.0981,-0.002893001482909426,-6.763001373393415,0.0544,0.64,4.0
0.17,-4.958094215434859e-06,0.48332299999999984,-0.0001287276555844804,-0.0981,-0.0035804096346125575,-6.458001912192245,0.0612,0.68,4.0
0.18,-6.603411734740919e-06,0.4823419999999998,-0.00016453175193060598,-0.0981,-0.004365744609998742,-6.1530026059246365,0.0684,0.7200000000000001,4.0
0.19,-8.685303715046853e-06,0.4813609999999998,-0.0002081891980305934,-0.0981,-0.0058719281629595246,-5.383203894410802,0.076,0.7600000000000001,4.0
0.2,-1.1354388511648739e-05,0.4803799999999998,-0.00026690847966018863,-0.0981,-0.008640759002758907,-3.9162063340082955,0.084,0.8000000000000002,4.0
0.21,-1.4887549208526515e-05,0.4793989999999998,-0.0003533160696877777,-0.0981,-0.01171274128996076,-2.5471205555897294,0.09240000000000001,0.8400000000000002,4.0
0.22,-1.9591984034400367e-05,0.4784179999999998,-0.0004704434825873853,-0.0981,-0.01498701658763344,-1.3249021244752193,0.10120000000000001,0.8800000000000002,4.0
0.23,-2.5795120519037566e-05,0.4774369999999998,-0.0006203136484637197,-0.0981,-0.01870450050526227,-0.10268468699478994,0.11040000000000001,0.9200000000000003,4.0
0.24,-3.386870705420099e-05,0.47645599999999977,-0.0008073586535163424,-0.0981,-0.02289079089184057,1.1195315843666354,0.12000000000000001,0.9600000000000003,4.0
0.25,-4.423137267854847e-05,0.4755869531584364,-0.0010362665624347482,-0.08690468415633365,-0.03201454700065069,4.299963680632949,0.13,1.0000000000000002,4.0
0.26,-5.7795493002961024e-05,0.47514790268493634,-0.0013564120324412552,-0.04390504735000416,-0.03838643379316901,5.855072968106494,0.1404,1.0400000000000003,4.0
0.27,-7.519825670669047e-05,0.47529435950824694,-0.0017402763703729452,0.014645682331060783,-0.04404783242692758,6.881461880220636,0.1512,1.0800000000000003,4.0
0.28,-9.700580365311268e-05,0.4761289625195796,-0.002180754694642221,0.08346030113326715,-0.05079537668920434,8.110892298084776,0.16240000000000002,1.1200000000000003,4.0
0.29,-0.00012389288826845533,0.47777465476072073,-0.0026887084615342645,0.1645692241141149,-0.0595960444531611,9.814088078552905,0.17400000000000002,1.1600000000000004,4.0
0.3,-0.00015673957732911407,0.48040175580971717,-0.0032846689060658757,0.26271010489964397,-0.06923525847094218,11.517280477404833,0.18600000000000003,1.2000000000000004,4.0
0.31,-0.00019650979223686705,0.4841805849064541,-0.003977021490775298,0.3778829096736923,-0.07974868942621609,13.22046906850049,0.19840000000000002,1.2400000000000004,4.0
0.32,-0.00024425487608724166,0.4892814609100411,-0.004774508385037459,0.5100876003586972,-0.09117200778733793,14.923653392199382,0.21120000000000003,1.2800000000000005,4.0
0.33,-0.00030111716071635006,0.495874702252848,-0.005686228462910838,0.659324134280691,-0.10354088378294381,16.626832954115457,0.22440000000000004,1.3200000000000005,4.0
0.34,-0.0003683335337237528,0.5041306268910665,-0.0067216373007402755,0.8255924638218456,-0.11727082698751777,18.421448742658463,0.23800000000000004,1.3600000000000005,4.0
0.35000000000000003,-0.0004472769894299073,0.5142286964035507,-0.007894345570615453,1.0098069512484302,-0.13223471832473455,20.255247661735964,0.25200000000000006,1.4000000000000006,4.0
0.36,-0.0005394439169685353,0.5263522906822087,-0.009216692753862799,1.2123594278657899,-0.1479198575413865,22.00352278513322,0.2664000000000001,1.4400000000000006,4.0
0.37,-0.0006464028302613019,0.5406762372393799,-0.010695891329276664,1.432394655717122,-0.16094070859610782,22.98213839483627,0.2812000000000001,1.4800000000000006,4.0
0.38,-0.0007694558144136793,0.5572983976360347,-0.012305298415237743,1.6622160396654848,-0.17792576515879124,24.583739780112523,0.2964000000000001,1.5200000000000007,4.0
0.39,-0.0009103013750819359,0.5763789320107008,-0.014084556066825656,1.90805343746661,-0.19827356138213512,26.600660156537387,0.3120000000000001,1.5600000000000007,4.0
0.4,-0.001070974291888406,0.5981195324010207,-0.01606729168064701,2.1740600390319837,-0.21797758735409842,28.266400462578417,0.3280000000000001,1.6000000000000008,4.0
0.41000000000000003,-0.0012534449674302859,0.6226867728375983,-0.018247067554187993,2.456724043657768,-0.23748215623665678,29.698017962765896,0.34440000000000015,1.6400000000000008,4.0
0.42,-0.0014596638585958315,0.6502238150704526,-0.020621889116554562,2.753704223285427,-0.2580921099713579,31.129625498685115,0.3612000000000002,1.6800000000000008,4.0
0.43,-0.0016916919607585128,0.6808738198531754,-0.02320281021626814,3.065000478272278,-0.2798374287844237,32.56122226931677,0.3784000000000002,1.7200000000000009,4.0
0.44,-0.0019517038057996366,0.7147799468628299,-0.026001184504112377,3.390612700965446,-0.30305489323758966,34.03719661574122,0.3960000000000002,1.760000000000001,4.0
0.45,-0.002242021140164519,0.7520897935340585,-0.029031733436488273,3.730984667122858,-0.3278163181620766,35.55754735702678,0.4140000000000002,1.800000000000001,4.0
0.46,-0.0025651201063456096,0.7929553949409898,-0.03230989661810904,4.086560140693126,-0.3538603756331841,37.07788424846423,0.43240000000000023,1.840000000000001,4.0
0.47000000000000003,-0.0029236051100900184,0.8375287847727675,-0.03584850037444088,4.4573389831777686,-0.3812189025047142,38.5982062740716,0.45120000000000027,1.880000000000001,4.0
0.48,-0.0033202120040848986,0.8859619952319523,-0.039660689399488025,4.843321045918485,-0.4075270207505133,39.82659375298099,0.47040000000000026,1.920000000000001,4.0
0.49,-0.0037575716001548303,0.9383778650664353,-0.043735959606993155,5.241586983448294,-0.43126869610565105,40.617089192710104,0.49000000000000027,1.960000000000001,4.0
0.5,-0.004238058065835327,0.9948554438201892,-0.04804864656804966,5.647757875375396,-0.4559088169859182,41.40757092356681,0.5100000000000002,2.000000000000001,4.0
0.51,-0.004764135413214416,1.0554737796662998,-0.05260773473790885,6.061833584611064,-0.48146393451439334,42.198038140440765,0.5304000000000002,2.040000000000001,4.0
0.52,-0.0053383591540449435,1.1203119193264546,-0.057422374083052785,6.483813966015472,-0.5079505991341369,42.98849000738518,0.5512000000000002,2.080000000000001,4.0
0.53,-0.005963377954788885,1.1894489079873478,-0.06250188007439415,6.913698866089323,-0.5213193674472616,42.37100247649759,0.5724000000000002,2.120000000000001,4.0
0.54,-0.006640528692277553,1.2628229968958908,-0.06771507374886677,7.337408890854299,-0.5329693715323359,41.59707332593615,0.5940000000000003,2.160000000000001,4.0
0.55,-0.0073709763669194545,1.3403567931370275,-0.07304476746419014,7.75337962411366,-0.5443894080388518,40.82313911820596,0.6160000000000003,2.200000000000001,4.0
0.56,-0.008155862982365241,1.4219729032899846,-0.07848866154457866,8.161611015295719,-0.5555632684536778,40.049199956436475,0.6384000000000003,2.240000000000001,4.0
0.5700000000000001,-0.008996305924656396,1.5075939334385855,-0.08404429422911544,8.562103014860083,-0.5664747443159194,39.275255961471565,0.6612000000000003,2.280000000000001,4.0
0.58,-0.009893396341379142,1.5971424891833335,-0.08970904167227463,8.954855574474799,-0.5771076272335276,38.50130727243514,0.6844000000000003,2.320000000000001,4.0
0.59,-0.010848197520825241,1.690541175655325,-0.09548011794460991,9.33986864719915,-0.5874457089009876,37.727354047296835,0.7080000000000004,2.360000000000001,4.0
0.6,-0.011861743271161438,1.7877125975320463,-0.10135457503361978,9.717142187672119,-0.5974727811181223,36.953396463437606,0.7320000000000004,2.4000000000000012,4.0
0.61,-0.012935036299609449,1.8885793590551112,-0.107329302844801,10.086676152306495,-0.6071726358100334,36.17943471821534,0.7564000000000004,2.4400000000000013,4.0
0.62,-0.014069046591638462,1.9930640640499977,-0.11340102920290134,10.448470499488648,-0.6165290650482125,35.40546902953048,0.7812000000000004,2.4800000000000013,4.0
0.63,-0.015264709790172297,2.101089315947837,-0.11956631985338347,10.802525189783953,-0.6255258610728425,34.63149963639156,0.8064000000000004,2.5200000000000014,4.0
0.64,-0.016522925574813416,2.212577717809316,-0.12582157846411188,11.148840186147869,-0.6341468163163263,33.85752679948078,0.8320000000000005,2.5600000000000014,4.0
0.65,-0.017844556041086167,2.3274518723507427,-0.13216304662727513,11.487415454142676,-0.6471935293790705,33.40525163314195,0.8580000000000005,2.6000000000000014,4.0
0.66,-0.019230905860296826,2.4456665520554837,-0.13863498192106583,11.821467970474096,-0.662256744888915,33.09083992248879,0.8844000000000005,2.6400000000000015,4.0
0.67,-0.020683481353996377,2.5671903157524736,-0.14525754936995497,12.152376369698985,-0.67732766711567,32.77641884452294,0.9112000000000006,2.6800000000000015,4.0
0.68,-0.022203789614407495,2.691991721333916,-0.15203082604111168,12.480140558144214,-0.6923997096965722,32.4619882898607,0.9384000000000006,2.7200000000000015,4.0
0.6900000000000001,-0.02379333784578827,2.8200393257443443,-0.1589548231380774,12.804760441042822,-0.7074662861025003,32.147548155298296,0.9660000000000006,2.7600000000000016,4.0
0.7000000000000001,-0.025453632705779293,2.951301684970302,-0.16602948599910242,13.126235922595805,-0.7225208096417887,31.83309834404173,0.9940000000000007,2.8000000000000016,4.0
0.71,-0.027186179646734497,3.0857473540306644,-0.1732546940955203,13.444566906036222,-0.7375566934644844,31.51863876593663,1.0224000000000006,2.8400000000000016,4.0
0.72,-0.02899248225703615,3.2233448869676202,-0.18063026103016513,13.759753293695589,-0.7525673505670611,31.204169337698204,1.0512000000000006,2.8800000000000017,4.0
0.73,-0.030874041602394507,3.364062836838346,-0.18815593453583573,14.07179498707257,-0.7686989325334925,30.950814785220224,1.0804000000000007,2.9200000000000017,4.0
0.74,-0.03283247084100621,3.5078758681875937,-0.19584292386117066,14.381303134924773,-0.786039586023133,30.758573228600973,1.1100000000000008,2.9600000000000017,4.0
0.75,-0.03486950403822023,3.6547647568597013,-0.203703319721402,14.688888867210782,-0.8034636948883057,30.56631907676394,1.1400000000000008,3.0000000000000018,4.0
0.76,-0.03698688360492308,3.8047102774394856,-0.21173795667028505,14.99455205797842,-0.8209672298559869,30.37405212268802,1.1704000000000008,3.040000000000002,4.0
0.77,-0.03918635989461153,3.9576932032315386,-0.21994762896884493,15.2982925792053,-0.8385461613468352,30.1817721619297,1.2012000000000007,3.080000000000002,4.0
0.78,-0.04146969080043466,4.113694306239784,-0.22833309058231327,15.600110300824598,-0.8561964594737155,29.989478992763715,1.2324000000000008,3.120000000000002,4.0
0.79,-0.043838641352205165,4.272694357147307,-0.23689505517705042,15.900005090752234,-0.8739140940404672,29.79717241632369,1.264000000000001,3.160000000000002,4.0
0.8,-0.046294983313379716,4.434674125296461,-0.2456341961174551,16.19797681491547,-0.891695034540926,29.604852236742936,1.296000000000001,3.200000000000002,4.0
0.81,-0.04884049477800836,4.5996143786692905,-0.25455114646286436,16.4940253372829,-0.9095352501582037,29.412518261295062,1.328400000000001,3.240000000000002,4.0
0.8200000000000001,-0.05147695976765282,4.767495883868249,-0.2636464989644464,16.78815051989585,-0.9274307097642307,29.220170300534704,1.3612000000000009,3.280000000000002,4.0
0.8300000000000001,-0.054206167828273706,4.938299406097261,-0.27292080606208874,17.080352222901197,-0.9464338573508351,29.071210084877798,1.394400000000001,3.320000000000002,4.0
0.84,-0.057030019274629674,5.112010049334761,-0.2823851446355971,17.371064323749977,-0.9656553039584707,28.927056626890582,1.428000000000001,3.360000000000002,4.0
0.85,-0.059950436251381495,5.28861339823495,-0.2920416976751818,17.660334890018884,-0.9849774344838299,28.782887169978792,1.462000000000001,3.400000000000002,4.0
0.86,-0.0629693509715817,5.468095035852136,-0.3018914720200201,17.94816376171867,-1.0043972251954392,28.63870146136614,1.496400000000001,3.440000000000002,4.0
0.87,-0.06608870541430144,5.65044054361546,-0.3119354442719745,18.234550776332334,-1.0239116519473943,28.494499249830234,1.531200000000001,3.480000000000002,4.0
0.88,-0.06931045102221592,5.835635501303766,-0.32217456079144846,18.519495768830637,-1.0435176901760217,28.350280285808253,1.5664000000000011,3.5200000000000022,4.0
0.89,-0.072636548399148,6.023665487020653,-0.3326097376932087,18.80299857168872,-1.0632123148967205,28.206044321502503,1.6020000000000012,3.5600000000000023,4.0
0.9,-0.07606896700756977,6.214516077169691,-0.3432418608421759,19.08505901490374,-1.0831483348502513,28.06724056547875,1.6380000000000012,3.6000000000000023,4.0
0.91,-0.07960970044947654,6.408173391375276,-0.35407334419067843,19.36573142055853,-1.1038109986847884,27.950216536657692,1.6744000000000012,3.6400000000000023,4.0
0.92,-0.0832608149912518,6.604625727234527,-0.36511145417752633,19.645233585925105,-1.1245882093279125,27.833173738102474,1.7112000000000012,3.6800000000000024,4.0
0.93,-0.08702438835395986,6.8038613804675885,-0.3763573362708055,19.92356532330613,-1.1454775097057732,27.71611187892362,1.7484000000000013,3.7200000000000024,4.0
0.9400000000000001,-0.09090250946763849,7.005868644888542,-0.3878121113678632,20.200726442095366,-1.1664764422360658,27.599030669043337,1.7860000000000014,3.7600000000000025,4.0
0.9500000000000001,-0.09489727822554073,7.2106358123764,-0.39947687579022384,20.4767167487858,-1.1875825488230545,27.481929819281355,1.8240000000000014,3.8000000000000025,4.0
0.96,-0.09901080523832527,7.418151172846186,-0.41135270127845436,20.751536046978615,-1.2087933708527347,27.36480904144083,1.8624000000000014,3.8400000000000025,4.0
0.97,-0.10324521158819508,7.628403014220116,-0.4234406349869817,21.025184137393023,-1.2301064491881482,27.24766804839429,1.9012000000000013,3.8800000000000026,4.0
0.98,-0.10760262858298371,7.841379622398886,-0.4357416994788632,21.297660817876967,-1.2515193241648441,27.13050655416955,1.9404000000000015,3.9200000000000026,4.0
0.99,-0.11208519751018882,8.057069281233073,-0.44825689272051167,21.568965883418663,-1.2730295355864976,27.013324274035682,1.9800000000000015,3.9600000000000026,4.0
1.0,-0.11669506939095259,8.275460272494662,-0.4609871880763766,21.83909912615902,-1.2946346227206873,26.896120924588978,2.0200000000000014,4.000000000000003,4.0
1.01,-0.12143440473398842,8.496540875848712,-0.4739335343035835,22.10806033540491,-1.3163321242948398,26.778896223838935,2.0604000000000013,4.040000000000003,4.0
1.02,-0.12630537328945374,8.720299368825145,-0.48709685554653187,22.3758492976433,-1.3381195784923363,26.66164989129428,2.1012000000000013,4.080000000000003,4.0
1.03,-0.13131015380276828,8.946724026790708,-0.5004780513314553,22.64246579655624,-1.361572321814635,26.586558216531152,2.142400000000001,4.120000000000003,4.0
1.04,-0.1364510915482643,9.175807340577924,-0.5140937745496016,22.908331378721552,-1.386779757864757,26.553617452248872,2.184000000000001,4.160000000000003,4.0
1.05,-0.14173070726954679,9.407546016110365,-0.5279615721282491,23.17386755324404,-1.4121937143982017,26.520649429415023,2.226000000000001,4.200000000000003,4.0
1.06,-0.1471515423622691,9.641936756585746,-0.5420835092722311,23.439074047538192,-1.4378134885984992,26.48765366780657,2.268400000000001,4.240000000000003,4.0
1.07,-0.15271615880385125,9.878976262427908,-0.5564616441582161,23.70395058421626,-1.4636383767452077,26.454629683900023,2.3112000000000013,4.280000000000003,4.0
1.08,-0.15842713908310793,10.11866123123846,-0.5710980279256681,23.96849688105526,-1.4896676741988972,26.421576990896448,2.3544000000000014,4.320000000000003,4.0
1.09,-0.16428708612978452,10.360988357748102,-0.5859947046676571,24.232712650964224,-1.515900675386048,26.388495098746425,2.3980000000000015,4.360000000000003,4.0
1.1,-0.1702986232439997,10.605954333767619,-0.6011537114215176,24.496597601951688,-1.542336673783876,26.35538351417513,2.4420000000000015,4.400000000000003,4.0
1.11,-0.17646439402559325,10.853555848138553,-0.6165770781593564,24.76015143709344,-1.5689749619050821,26.32224174070739,2.4864000000000015,4.440000000000003,4.0
1.12,-0.18278706230337732,11.103789586683558,-0.6322668277784071,25.023373854500516,-1.5958148312825242,26.28906927869282,2.5312000000000014,4.480000000000003,4.0
1.1300000000000001,-0.18926931206428965,11.356652232156431,-0.6482249760912324,25.286264547287445,-1.6228555724538196,26.255865625331012,2.5764000000000014,4.520000000000003,4.0
1.1400000000000001,-0.19591384738244735,11.612140464191839,-0.6644535318157706,25.548823203540756,-1.6500964749458706,26.222630274696712,2.622000000000001,4.560000000000003,4.0
1.1500000000000001,-0.20272339234809963,11.870250959254717,-0.6809544965652293,25.811049506287723,-1.6775304616445486,26.189226113863818,2.668000000000001,4.600000000000003,4.0
1.16,-0.2097006903599164,12.130980376928981,-0.6977298011816748,26.07294176742636,-1.7051613453152248,26.155755095358998,2.7144000000000013,4.640000000000003,4.0
1.17,-0.21684850450626467,12.394325370112782,-0.714781414634827,26.33449931837995,-1.7329899727840246,26.122250856784127,2.7612000000000014,4.680000000000003,4.0
1.18,-0.22416961764989135,12.660282588382259,-0.7321113143626673,26.59572182694779,-1.7610156258196805,26.08871288048728,2.8084000000000016,4.720000000000003,4.0
1.19,-0.2316668323561,12.928848677939786,-0.7497214706208641,26.856608955752662,-1.7892375851027735,26.055140645830264,2.8560000000000016,4.760000000000003,4.0
1.2,-0.23934297082081893,13.200020281561896,-0.7676138464718919,27.117160362210964,-1.8176551302098822,26.021533629214282,2.9040000000000017,4.800000000000003,4.0
1.21,-0.24720087479855885,13.473794038546927,-0.7857903977739907,27.377375698503105,-1.8462675395976729,25.987891304105588,2.9524000000000017,4.840000000000003,4.0
1.22,-0.25524340553025854,13.750166584662368,-0.8042530731699674,27.63725461154416,-1.8750740905869268,25.95421314106119,3.0012000000000016,4.8800000000000034,4.0
