Time,X_pos,Y_pos,X_vel,Y_vel,X_acl,Y_acl,Angle,Ang_vel,Ang_acl
0.0,0,0,0,0,0.0,-9.81,0,0,10.0
0.01,0.0,0,0.0,-0.0981,-1.595230936241828e-05,-8.89600000013921,0.001,0.1,10.0
0.02,-1.595230936241828e-09,0,-1.595230936241828e-07,-0.1870600000013921,-9.571385613563488e-05,-7.982000002505783,0.003,0.2,10.0
0.03,-1.2761847486047144e-08,0,-1.1166616549805315e-06,-0.26688000002644996,-0.00028714156801329713,-7.068000015034698,0.006,0.30000000000000004,10.0
0.04,-5.2642620837182174e-08,0,-3.988077335113503e-06,-0.33756000017679694,-0.0006380923712895593,-6.154000055684065,0.01,0.4,10.0
0.05,-1.5633263131727312e-07,0,-1.0369001048009095e-05,-0.3991000007336376,-0.0011964231885751872,-5.24000015661143,0.015,0.5,10.0
0.06,-3.796649606548828e-07,0,-2.2333232933760968e-05,-0.4515000022997519,-0.002009990934764297,-4.3260003683500825,0.020999999999999998,0.6,10.0
0.07,-8.039963834689222e-07,0,-4.2433142281403936e-05,-0.4947600059832527,-0.003126652510741496,-3.412000763985348,0.027999999999999997,0.7,10.0
0.08,-1.540993057357111e-06,0,-7.369966738881889e-05,-0.5288800136231062,-0.004594264794319192,-2.4980014433309012,0.036,0.7999999999999999,10.0
0.09,-2.7374162106772193e-06,0,-0.00011964231533201082,-0.5538600280564152,-0.006460684627894846,-1.584002537105052,0.045,0.8999999999999999,10.0
0.1,-4.5799078267868125e-06,0,-0.00018424916161095928,-0.5697000534274658,-0.008773768802317929,-0.6700042111070452,0.05499999999999999,0.9999999999999999,10.0
0.11,-7.299776323128197e-06,0,-0.00027198684963413854,-0.5764000955385362,-0.011581374036456364,0.24399332960666875,0.06599999999999999,1.0999999999999999,10.0
0.12,-1.1177782223115218e-05,0,-0.0003878005899987022,-0.5739601622424695,-0.014931356951952222,1.157989836546145,0.07799999999999999,1.2,10.0
0.13,-1.6548923818297463e-05,0,-0.0005371141595182244,-0.562380263877008,-0.018871574042656422,2.0719850136117035,0.09099999999999998,1.3,10.0
0.14,-2.3807222817745348e-05,0,-0.0007258298999447886,-0.541660413740891,-0.02344988163823228,2.9859785129176863,0.10499999999999998,1.4000000000000001,10.0
0.15,-3.341050998101646e-05,0,-0.0009603287163271114,-0.5118006286117142,-0.028714135861417616,3.8999699306162494,0.11999999999999998,1.5000000000000002,10.0
0.16,-4.588521073042934e-05,0,-0.0012474700749412876,-0.4728009293055517,-0.03616249001179297,5.424957081472732,0.13599999999999998,1.6000000000000003,10.0
0.17,-6.197616048102152e-05,0,-0.0016090949750592173,-0.41855135849082437,-0.04475507575316095,6.949940244022182,0.153,1.7000000000000004,10.0
0.18,-8.254261780692978e-05,0,-0.0020566457325908267,-0.3490519560506026,-0.05457173957262128,8.47491856490589,0.171,1.8000000000000005,10.0
0.19,-0.00010856624909010018,0,-0.0026023631283170396,-0.2643027704015437,-0.07339898903644078,12.323878299755995,0.19000000000000003,1.9000000000000006,10.0
0.2,-0.00014192977927691465,0,-0.0033363530186814472,-0.14106398740398374,-0.10800928440026998,19.658802062426716,0.21000000000000002,2.0000000000000004,10.0
0.21,-0.00018609423790375611,0.0005552403322028343,-0.004416445862684147,0.05552403322028343,-0.14640893294746363,26.504149304823287,0.23100000000000004,2.1000000000000005,10.0
0.22,-0.0002448995898253439,0.0037608955948879976,-0.005880535192158783,0.3205655262685163,-0.1873371959595187,32.61514194404709,0.25300000000000006,2.2000000000000006,10.0
0.23,-0.00032243866134288365,0.01022806505197787,-0.00775390715175397,0.6467169457089872,-0.23380549676511514,38.72610353232733,0.2760000000000001,2.3000000000000007,10.0
0.24,-0.00042335828253693486,0.020567844862300476,-0.01009196211940512,1.0339779810322605,-0.2861337879118995,44.837028679561364,0.3000000000000001,2.400000000000001,10.0
0.25,-0.000552891282522176,0.03539132754057922,-0.012953299998524116,1.482348267827874,-0.4001800348788205,60.73886502233539,0.3250000000000001,2.500000000000001,10.0
0.26,-0.0007224422859952993,0.056288696721091505,-0.01695510034731232,2.089736918051228,-0.47982790134827885,68.51413025718888,0.35100000000000015,2.600000000000001,10.0
0.27,-0.0009399760796032503,0.08403747892732268,-0.021753379360795105,2.7748782206231173,-0.5505945502762716,73.64578376242841,0.37800000000000017,2.700000000000001,10.0
0.28,-0.0012125693282388286,0.11915083950979669,-0.02725932486355782,3.5113360582474016,-0.634937745188909,79.79257182305604,0.4060000000000002,2.800000000000001,10.0
0.29,-0.0015486563513932977,0.1622434572745763,-0.03360870231544691,4.309261776477962,-0.7449445440939557,88.30806496618828,0.4350000000000002,2.9000000000000012,10.0
0.3,-0.0019592378289571624,0.21416688153597477,-0.041058147756386464,5.192342426139845,-0.8654327504784854,96.82345243509242,0.46500000000000025,3.0000000000000013,10.0
0.31,-0.0024563625815688757,0.27577265104088244,-0.04971247526117132,6.1605769504907695,-0.9968481591044389,105.33872091327487,0.4960000000000003,3.1000000000000014,10.0
0.32,-0.0030531721500910327,0.34791229263711765,-0.05968095685221571,7.213964159623519,-1.1396365479127655,113.85385603744596,0.5280000000000002,3.2000000000000015,10.0
0.33,-0.0037639453734044665,0.43143731983709743,-0.07107732233134337,8.352502719997979,-1.2942436761168392,122.36884235862908,0.5610000000000003,3.3000000000000016,10.0
0.34,-0.004604142964329584,0.5271992312729401,-0.08401975909251176,9.57619114358427,-1.4658632056204812,131.3408501886112,0.5950000000000003,3.4000000000000017,10.0
0.35000000000000003,-0.00559092687581675,0.6360952277276439,-0.09867839114871657,10.889599645470382,-1.652906000990498,140.50860489077238,0.6300000000000003,3.5000000000000018,10.0
0.36,-0.006743001387402966,0.759042084671425,-0.11520745115862155,12.294685694378105,-1.8489632436101526,149.2485871370512,0.6660000000000004,3.600000000000002,10.0
0.37,-0.008079972223350197,0.8969138003289112,-0.13369708359472307,13.787171565748617,-2.0117164573109716,154.1403249686924,0.7030000000000004,3.700000000000002,10.0
0.38,-0.009618114705028526,1.0501995484832667,-0.1538142481678328,15.328574815435541,-2.2240199851096185,162.14661829690039,0.7410000000000004,3.800000000000002,10.0
0.39,-0.011378659185217816,1.219699958467312,-0.17605444801892897,16.950040998404546,-2.4783552123459582,172.22913011064819,0.7800000000000005,3.900000000000002,10.0
0.4,-0.013387039186641702,1.4064232814624222,-0.20083800014238856,18.672332299511027,-2.7246417098180413,180.55562449122448,0.8200000000000005,4.000000000000002,10.0
0.41000000000000003,-0.015667883359047393,1.611202166906655,-0.22808441724056897,20.477888544423273,-2.9684331045313077,187.71135437193368,0.8610000000000005,4.100000000000001,10.0
0.42,-0.018245570841906214,1.834752187788081,-0.25776874828588203,22.35500208814261,-3.226039188391646,194.8667728856902,0.9030000000000006,4.200000000000001,10.0
0.43,-0.0211458622436042,2.077788885958076,-0.29002914016979847,24.30366981699951,-3.4978343610708027,202.02185500377973,0.9460000000000006,4.300000000000001,10.0
0.44,-0.024395937081409264,2.3410277696284494,-0.3250074837805065,26.323888367037306,-3.788027829199441,209.39849248685556,0.9900000000000007,4.4,10.0
0.45,-0.028024814702134273,2.625206502547508,-0.3628877620725009,28.417873291905863,-4.097516779712701,216.99664843540853,1.0350000000000006,4.5,10.0
0.46,-0.032063444000830554,2.9310849003101076,-0.4038629298696279,30.587839776259948,-4.423034265129864,224.59437160910647,1.0810000000000006,4.6,10.0
0.47000000000000003,-0.03654437672603982,3.259422735233618,-0.44809327252092657,32.83378349235101,-4.76497771011807,232.1916302642182,1.1280000000000006,4.699999999999999,10.0
0.48,-0.04150180722226089,3.61097973318355,-0.49574304962210725,35.15569979499319,-5.093787319138673,238.32905632230734,1.1760000000000006,4.799999999999999,10.0
0.49,-0.04696861645039583,3.9863696367657124,-0.546680922813494,37.53899035821626,-5.390513711185606,242.27703911620296,1.2250000000000005,4.899999999999999,10.0
0.5,-0.05297447704964933,4.385987244259495,-0.6005860599253501,39.96176074937829,-5.698465132905263,246.22459355940384,1.2750000000000006,4.999999999999998,10.0
0.51,-0.05955018416219336,4.810227311109219,-0.6575707112544027,42.42400668497233,-6.01784791159498,250.17169449974244,1.3260000000000005,5.099999999999998,10.0
0.52,-0.06672767606589688,5.259484547408916,-0.7177491903703525,44.92572362996976,-6.348868321436628,254.11831582233629,1.3780000000000006,5.1999999999999975,10.0
0.53,-0.07454005480174407,5.734153615290847,-0.7812378735847187,47.46690678819312,-6.51592302082211,251.02665881268456,1.4310000000000005,5.299999999999997,10.0
0.54,-0.08300402583967346,6.233925349054046,-0.8463971037929399,49.97717337631997,-6.661490618581821,247.15284877384073,1.4850000000000005,5.399999999999997,10.0
0.55,-0.09213414593946105,6.75841236769463,-0.9130120099787581,52.44870186405838,-6.804179369753752,243.27888075710436,1.5400000000000005,5.4999999999999964,10.0
0.56,-0.10194468397622401,7.307227274410924,-0.9810538036762956,54.88149067162942,-6.943786490683117,239.40475799037472,1.5960000000000005,5.599999999999996,10.0
0.5700000000000001,-0.11244960066205528,7.879982656926256,-1.0504916685831267,57.27553825153317,-7.0801092018030225,235.53048425538887,1.6530000000000005,5.699999999999996,10.0
0.58,-0.12366252826806685,8.476291087867127,-1.121292760601157,59.63084309408706,-7.212944728932271,231.6560639053939,1.7110000000000005,5.799999999999995,10.0
0.59,-0.13559675034697166,9.095765125198536,-1.1934222078904797,61.947403733141,-7.342090304657827,227.78150188281595,1.7700000000000005,5.899999999999995,10.0
0.6,-0.14826518145634224,9.738017312718227,-1.266843110937058,64.22521875196917,-7.467343169804177,223.9068037369265,1.8300000000000005,5.999999999999995,10.0
0.61,-0.16168034688269323,10.402660180611612,-1.3415165426350997,66.46428678933843,-7.588500574991657,220.03197564150466,1.8910000000000005,6.099999999999994,10.0
0.62,-0.1758543623665434,11.089306246069146,-1.4174015483850162,68.66460654575347,-7.705359782285981,216.1570244124959,1.9530000000000003,6.199999999999994,10.0
0.63,-0.19079891382862216,11.79756801396793,-1.494455146207876,70.82617678987843,-7.817718066941044,212.28195752566634,2.016,6.299999999999994,10.0
0.64,-0.206525237097395,12.527057977619283,-1.5726323268772864,72.94899636513509,-7.925372719237209,208.40678313425295,2.08,6.399999999999993,10.0
0.65,-0.2230440976380916,13.277388619584059,-1.6518860540696585,75.03306419647761,-8.088331804610904,206.139067416659,2.145,6.499999999999993,10.0
0.66,-0.24037179135924927,14.048333168290501,-1.7327693721157675,77.0944548706442,-8.276483567019937,204.56004471484306,2.211,6.5999999999999925,10.0
0.67,-0.2585271334371089,14.839733721468427,-1.8155342077859669,79.14005531779263,-8.464722236138863,202.98072946608713,2.2779999999999996,6.699999999999992,10.0
0.68,-0.2775289477385825,15.651432347592962,-1.9001814301473554,81.1698626124535,-8.652965030075737,201.40111826698654,2.3459999999999996,6.799999999999992,10.0
0.6900000000000001,-0.2973960585430636,16.483271085544196,-1.9867110804481127,83.18387379512336,-8.841129153967612,199.8212079081656,2.4149999999999996,6.8999999999999915,10.0
0.7000000000000001,-0.3181472822629415,17.335091944286248,-2.075122371987789,85.18208587420501,-9.029131800280421,198.24099538149434,2.4849999999999994,6.999999999999991,10.0
0.71,-0.3398014191628474,18.206736902566448,-2.165413689990593,87.16449582801995,-9.216890149143635,196.66047788730592,2.555999999999999,7.099999999999991,10.0
0.72,-0.36237724507766766,19.09804790863538,-2.2575825914820293,89.13110060689301,-9.404321368720513,195.07965284161352,2.6279999999999992,7.19999999999999,10.0
0.73,-0.38589350312936,20.00886687998847,-2.3516258051692347,91.08189713530915,-9.60574736708339,193.80385664442736,2.700999999999999,7.29999999999999,10.0
0.74,-0.4103703359177607,20.939066237006006,-2.4476832788400684,93.01993570175343,-9.822268328360089,192.83303058769275,2.774999999999999,7.39999999999999,10.0
0.75,-0.43582939553899736,21.88854889708231,-2.5459059621236695,94.94826600763035,-10.039817501206056,191.86181128502778,2.8499999999999988,7.499999999999989,10.0
0.76,-0.46229243691035465,22.857217738287115,-2.64630413713573,96.86688412048063,-10.258343821240922,190.89019229395458,2.925999999999999,7.599999999999989,10.0
0.77,-0.48978131266383607,23.844975598721316,-2.748887575348139,98.77578604342018,-10.477796200206326,189.91816725413835,3.002999999999999,7.699999999999989,10.0
0.78,-0.5183179680373381,24.85172527588093,-2.8536655373502025,100.67496771596157,-10.69812352585443,188.94572989184977,3.0809999999999986,7.799999999999988,10.0
0.79,-0.5479244357634255,25.87736952602973,-2.960646772608747,102.56442501488007,-10.919274661855779,187.9728740244282,3.1599999999999984,7.899999999999988,10.0
0.8,-0.5786228309556986,26.921811063580975,-3.0698395192273047,104.44415375512435,-11.14119844772705,186.99959356474722,3.2399999999999984,7.999999999999988,10.0
0.81,-0.6104353459927443,27.984952560488694,-3.181251503704575,106.31414969077181,-11.363843698779185,186.02588252568106,3.3209999999999984,8.099999999999987,10.0
0.8200000000000001,-0.643384245399668,29.066696645648978,-3.294889940692367,108.17440851602862,-11.587159206086554,185.05173502457242,3.4029999999999982,8.199999999999987,10.0
0.8300000000000001,-0.6774918607272004,30.16694590431172,-3.4107615327532326,110.02492586627434,-11.82429283621017,184.29381749644216,3.485999999999998,8.299999999999986,10.0
0.84,-0.7127819053383537,31.285624544724108,-3.5290044611153344,111.86786404123876,-12.064131379900079,183.55948541864944,3.569999999999998,8.399999999999986,10.0
0.85,-0.7492783630874971,32.42265913367836,-3.6496457749143354,113.70345889542526,-12.305204372112449,182.82465410431595,3.654999999999998,8.499999999999986,10.0
0.86,-0.7870053412738517,33.577976188043046,-3.77269781863546,115.53170543646841,-12.547473005758652,182.08931570344572,3.740999999999998,8.599999999999985,10.0
0.87,-0.8259870667607822,34.751502173978075,-3.8981725486930463,117.35259859350288,-12.790898441482867,181.35346241722198,3.8279999999999976,8.699999999999985,10.0
0.88,-0.8662478820918609,35.943163506154825,-4.026081533107875,119.1661332176751,-13.035441807408198,180.6170865014076,3.9159999999999973,8.799999999999985,10.0
0.89,-0.9078122416036805,37.15288654698172,-4.156435951181956,120.97230408268918,-13.281064198897642,179.88018026974808,4.004999999999997,8.899999999999984,10.0
0.9,-0.9507047075353898,38.38059760583558,-4.289246593170933,122.77110588538666,-13.529673212380017,179.16992491803765,4.094999999999997,8.999999999999984,10.0
0.91,-0.9949501407883372,39.62622565718125,-4.424543325294733,124.56280513456704,-13.787328560156334,178.56786059294933,4.185999999999997,9.099999999999984,10.0
0.92,-1.0405743068973001,40.88971049458622,-4.562416610896297,126.34848374049653,-14.04638298592523,177.9652108718051,4.277999999999997,9.199999999999983,10.0
0.93,-1.0876031113048557,42.17099185307836,-4.702880440755549,128.12813584921457,-14.306804488493055,177.36196673699934,4.370999999999997,9.299999999999983,10.0
0.9400000000000001,-1.1360625961612605,43.47000940824421,-4.84594848564048,129.90175551658456,-14.568561027119353,176.7581191999105,4.464999999999996,9.399999999999983,10.0
0.9500000000000001,-1.1859789371203773,44.78670277533005,-4.991634095911674,131.66933670858367,-14.831620521138564,176.1536593037167,4.559999999999996,9.499999999999982,10.0
0.96,-1.237378440131608,46.12101150834626,-5.13995030112306,133.43087330162084,-15.095950849593446,175.54857812621424,4.655999999999996,9.599999999999982,10.0
0.97,-1.2902875382277978,47.472875099175084,-5.290909809618994,135.18635908288297,-15.361519850880434,174.94286678264004,4.752999999999996,9.699999999999982,10.0
0.98,-1.3447327883090758,48.842232976682176,-5.4445250081277985,136.93578775070938,-15.628295322407395,174.33651642849685,4.8509999999999955,9.799999999999981,10.0
0.99,-1.4007408679225946,50.22902450583212,-5.600807961351872,138.67915291499435,-15.89624502026406,173.72951826238202,4.949999999999996,9.89999999999998,10.0
1.0,-1.4583385720381397,51.63318898680831,-5.759770411554513,140.41644809761817,-16.16533665890546,173.1218635288195,5.049999999999995,9.99999999999998,10.0
1.01,-1.5175528098195754,53.054665654137374,-5.921423778143567,142.14766673290637,-16.435537910848815,172.51354352109516,5.150999999999995,10.09999999999998,10.0
1.02,-1.578410601392096,54.493393675818545,-6.085779157252055,143.87280216811732,-16.706816406384064,171.90454958409535,5.252999999999995,10.19999999999998,10.0
1.03,-1.640939074605255,55.94931215245813,-6.252847321315896,145.59184766395828,-16.998838097491955,171.50498209816277,5.3559999999999945,10.29999999999998,10.0
1.04,-1.705167431628163,57.422381127307524,-6.422835702290815,147.3068974849399,-17.31271456439056,171.31472421558018,5.459999999999995,10.399999999999979,10.0
1.05,-1.7711270601075102,58.91258157457848,-6.595962847934721,149.0200447270957,-17.629114288268738,171.123617124243,5.564999999999994,10.499999999999979,10.0
1.06,-1.8388496000156842,60.41989438356186,-6.772253990817408,150.73128089833813,-17.948026303196595,170.9316459679961,5.670999999999994,10.599999999999978,10.0
1.07,-1.9083669425541778,61.94430035714204,-6.951734253849374,152.4405973580181,-18.26943957304503,170.73879579463818,5.777999999999994,10.699999999999978,10.0
1.08,-1.979711229049976,63.485780210301684,-7.1344286495798235,154.1479853159645,-18.593342990336257,170.54505155696074,5.885999999999994,10.799999999999978,10.0
1.09,-2.0529148498448078,65.04431456861703,-7.320362079483186,155.85343583153409,-18.91972537508935,170.3503981137956,5.994999999999994,10.899999999999977,10.0
1.1,-2.1280104431771485,66.61988396674374,-7.509559333234079,157.55693981267203,-19.248575473660885,170.15482023107043,6.104999999999993,10.999999999999977,10.0
1.11,-2.2050308940568555,68.21246884689357,-7.702045087970688,159.25848801498273,-19.57988195758083,169.95830258287268,6.215999999999993,11.099999999999977,10.0
1.12,-2.2840093331323206,69.82204955730168,-7.897843907546496,160.95807104081146,-19.91363342238384,169.7608297525215,6.327999999999993,11.199999999999976,10.0
1.1300000000000001,-2.364979135550024,71.44860635068505,-8.096980241770334,162.65567933833668,-20.249818386436047,169.56238623364882,6.440999999999993,11.299999999999976,10.0
1.1400000000000001,-2.447973919806371,73.09211938269179,-8.299478425634694,164.35130320067316,-20.588425289757584,169.3629564312889,6.554999999999993,11.399999999999975,10.0
1.1500000000000001,-2.5330275465916934,74.75256871034165,-8.50536267853227,166.04493276498604,-20.929363073560047,169.1618455302568,6.669999999999992,11.499999999999975,10.0
1.16,-2.6201741096843723,76.42993422254453,-8.714656309267871,167.73655122028862,-21.272676488791724,168.95954747614508,6.785999999999992,11.599999999999975,10.0
1.17,-2.70944794042593,78.12419568949504,-8.927383074155788,169.42614669505008,-21.618373204142898,168.75621625330547,6.902999999999992,11.699999999999974,10.0
1.18,-2.800883608487902,79.83533277807086,-9.143566806197217,171.11370885758313,-21.966441291276006,168.5518359396091,7.020999999999991,11.799999999999974,10.0
1.19,-2.8945159206790017,81.56332505024065,-9.363231219109977,172.79922721697923,-22.316868737634678,168.34639053027382,7.139999999999991,11.899999999999974,10.0
1.2,-2.990379919743865,83.30815196146347,-9.586399906486324,174.48269112228198,-22.669643445245715,168.13986393901158,7.259999999999991,11.999999999999973,10.0
1.21,-3.0885108831532526,85.06979285908018,-9.813096340938781,176.1640897616721,-23.024753229517703,167.93223999918553,7.3809999999999905,12.099999999999973,10.0
1.22,-3.188944321885592,86.84822698069682,-10.043343873233958,177.84341216166396,-23.38218581803659,167.72350246497678,7.50299999999999,12.199999999999973,10.0
1.23,-3.2917159791997355,88.64343345255996,-10.277165731414325,179.52064718631374,-23.741928849358278,167.51363501256074,7.62599999999999,12.299999999999972,10.0
1.24,-3.3968618293988144,90.45539128792436,-10.514585019907907,181.19578353643934,-24.103969871798466,167.30262124129354,7.749999999999989,12.399999999999972,10.0
